---- Running command
---- ./polyDFE -d /scratch/40840245/tmpmer55fgl -m C -i /scratch/40840245/tmphavamhtz 1 -v 1 
---- Performing inference using model C

---- Performing inference on /scratch/40840245/tmpmer55fgl
----      with -i /scratch/40840245/tmphavamhtz 1
---- Data /scratch/40840245/tmpmer55fgl does not contain divergence counts. Using option -w.
---- No mutation variability. Using Poisson likelihood.


---- Using provided initial values

-- Starting local optimization
-- Optimizing all parameters
  it        eps_an     theta_bar           S_d             b           p_b           S_b           r 2           r 3           r 4           ln lk          grad status 
   0 0.00000449599     0.0006164 -55.645569999     0.1199374     0.0151532     0.1308463     0.8958562     0.8771536     0.8733385 -31.74040463475 0.39939286900   -2 
   1 0.00000449599 0.00060890317 -55.676757026 0.12014689033 0.01515235020 0.13084579504 0.89513795238 0.87527314720 0.87521566342 -31.48382982397 0.12275985829   -2 
   2 0.00000449599 0.00060407405 -55.487971328 0.11938533899 0.01515525683 0.13084548590 0.91141000032 0.86904031791 0.90824961864 -31.20584848337 0.04375355155   -2 
   3 0.00000449599 0.00060211717 -55.339470867 0.11909424933 0.01515616619 0.13084302342 0.90961983243 0.87680963790 0.91650224158 -31.17708260487 0.02420647565   -2 
   4 0.00000449599 0.00060248841 -55.312316686 0.11906169493 0.01515623650 0.13084240582 0.90996468339 0.87755835266 0.91653302281 -31.17563567529 0.01815050423   -2 
   5 0.00000449599 0.00060167307 -55.161902090 0.11903418177 0.01515593477 0.13083787473 0.91157661527 0.88060681812 0.91476771337 -31.17167989004 0.00768119737   -2 
   6 0.00000449599 0.00060096423 -54.730036441 0.11909904959 0.01515444270 0.13082395578 0.91283606915 0.88139420725 0.91264449477 -31.16936630398 0.02179368207   -2 
   7 0.00000449599 0.00060129832 -54.405152571 0.11913635860 0.01515337065 0.13081352483 0.91340614236 0.88165518046 0.91176039874 -31.16750890470 0.02390954924   -2 
   8 0.00000449597 0.00059927401 -49.617419725 0.12037075376 0.01513393289 0.13064799327 0.91071271630 0.87856143366 0.90597016947 -31.14012106493 0.03744953436   -2 
   9 0.00000449596 0.00060007645 -48.429876145 0.12084402598 0.01512818993 0.13060352907 0.91007342946 0.87807167734 0.90689872519 -31.13262644826 0.05404110274   -2 
  10 0.00000449594 0.00059806846 -42.896084837 0.12404511659 0.01509602841 0.13037563042 0.90523510973 0.87524874895 0.91552400777 -31.09616002045 0.04793467908   -2 
  11 0.00000449590 0.00058967458 -33.714619369 0.13457225040 0.01501681134 0.12989894314 0.92115134701 0.88358835856 0.93158468295 -30.99005030724 0.20103199620   -2 
  12 0.00000449585 0.00058820052 -27.205707401 0.14469167846 0.01494685477 0.12947642763 0.93629864266 0.89314353341 0.94623358486 -30.87896161844 0.08950319181   -2 
  13 0.00000449582 0.00058934464 -22.953145078 0.15617612703 0.01488190490 0.12912676769 0.92062769917 0.91066521244 0.94803060958 -30.69342132398 0.06577606954   -2 
  14 0.00000449579 0.00059456438 -19.834066220 0.16993525698 0.01481661003 0.12881104139 0.92614656475 0.90724873586 0.94114989695 -30.56105523598 0.14906446588   -2 
  15 0.00000449577 0.00059283975 -18.708824913 0.17612129424 0.01478954092 0.12868314019 0.92764446938 0.90490282892 0.93874395013 -30.51001872162 0.03981041185   -2 
  16 0.00000449573 0.00059034543 -15.161908944 0.19970126576 0.01469479243 0.12822964801 0.93579073067 0.90466029323 0.96227083207 -30.44869513212 0.12533023759   -2 
  17 0.00000449573 0.00059245322 -15.353412969 0.19789325799 0.01470134571 0.12825850969 0.93559271941 0.90658499678 0.96139100829 -30.42087664160 0.05430884336   -2 
  18 0.00000449573 0.00059066523 -15.534959288 0.19555473854 0.01470945184 0.12828955525 0.93267397265 0.91656599388 0.96165818795 -30.38670331795 0.02233518964   -2 
  19 0.00000449573 0.00059078328 -15.535795245 0.19519917283 0.01471054407 0.12829195864 0.93391199906 0.91770985394 0.96243453284 -30.38401186656 0.03035146249   -2 
  20 0.00000449574 0.00058899586 -15.530523843 0.19447450907 0.01471277637 0.12829649769 0.93681671396 0.91967177696 0.96435903654 -30.37890955785 0.00841296411   -2 
  21 0.00000449574 0.00058925971 -15.528660864 0.19456172146 0.01471250588 0.12829580842 0.93639548436 0.91931234673 0.96419325095 -30.37877256950 0.00772739446   -2 
  22 0.00000449574 0.00058912713 -15.506965368 0.19460926905 0.01471235669 0.12829430592 0.93568880240 0.91813199969 0.96464088528 -30.37802429215 0.01333230310   -2 
  23 0.00000449573 0.00058939204 -15.482092479 0.19460741049 0.01471234609 0.12829287652 0.93533256626 0.91722435047 0.96514224985 -30.37743845217 0.00755399230   -2 
  24 0.00000449573 0.00058811588 -15.301093833 0.19444274460 0.01471279539 0.12828381138 0.93661548350 0.91638945957 0.96604881697 -30.37430967555 0.01564039456   -2 
  25 0.00000449573 0.00058817250 -15.248114845 0.19441435243 0.01471288103 0.12828109438 0.93691772139 0.91662971253 0.96619558868 -30.37357102302 0.01353918399   -2 
  26 0.00000449573 0.00058722995 -15.070517256 0.19464671196 0.01471234106 0.12827082088 0.93643977015 0.91896775764 0.96569293241 -30.37098884365 0.01001706499   -2 
  27 0.00000449573 0.00058763429 -15.031739744 0.19492906553 0.01471163785 0.12826778081 0.93642689681 0.91936257613 0.96551492646 -30.37016011025 0.02020960665   -2 
  28 0.00000449572 0.00058825159 -14.540286463 0.19984007936 0.01469950250 0.12822435653 0.93478863028 0.92249468842 0.96242845787 -30.35946532696 0.02221272005   -2 
  29 0.00000449571 0.00058829028 -13.769938447 0.20816622114 0.01467967451 0.12815351971 0.93955316665 0.92001930979 0.96690778564 -30.34126507266 0.02868259986   -2 
  30 0.00000449571 0.00058892032 -13.624308940 0.20956662285 0.01467645458 0.12814064176 0.94014391525 0.92052392017  0.9688336319 -30.33796075519 0.03527487238   -2 
  31 0.00000449570 0.00058730447 -12.839310595 0.21720795867 0.01465932966 0.12807004145 0.94003820945 0.92571921821 0.98168035452 -30.31858112316 0.02174117821   -2 
  32 0.00000449569 0.00058663298 -12.603861584 0.21957337909 0.01465416897 0.12804829120 0.94029787735 0.92750889008 0.98521158143 -30.31730507798 0.02584946242   -2 
  33 0.00000449568 0.00058381065 -11.618391445 0.22912429375 0.01463409496 0.12795653819 0.94686548293 0.93717983724 0.99285695181 -30.30142057893 0.03286301207   -2 
  34 0.00000449568 0.00058247014 -11.415936661 0.23125929205 0.01462973036 0.12793671710 0.94796717231 0.93852769295 0.99329106649 -30.29798678858 0.02948725645   -2 
  35 0.00000449566 0.00058149265 -10.777516403 0.23798227646 0.01461636871 0.12787336977 0.95141184634 0.94069883866 0.99132363832 -30.28689343055 0.02668514050   -2 
  36 0.00000449566 0.00058094903 -10.707398902 0.23885600478 0.01461465089 0.12786593505 0.94988131369 0.93971379672 0.99083116220 -30.28316970076 0.03516608824   -2 
  37 0.00000449566 0.00058216130 -10.555716967 0.24061741212 0.01461125326 0.12785027416 0.94604020398 0.93706187353 0.99002066120 -30.27573601780 0.00519816135   -2 
  38 0.00000449566 0.00058212353 -10.561829593 0.24058940753 0.01461129317 0.12785076297 0.94682119476 0.93667300432 0.98985197916 -30.27548006856 0.00144582444   -2 
  39 0.00000449566 0.00058213666 -10.562089130 0.24063917056 0.01461117998 0.12785061775 0.94673765822 0.93641338208 0.98974027825 -30.27545095580 0.00277048361   -2 
  40 0.00000449566 0.00058223055 -10.562024249 0.24067410426 0.01461110030 0.12785049856 0.94668992884 0.93624520396 0.98966759535 -30.27543046347 0.00064949203   -2 
  41 0.00000449566 0.00058224192 -10.561342127 0.24071698800 0.01461100204 0.12785029786 0.94657462757 0.93632348085 0.98961833077 -30.27542230515 0.00091114737   -2 
  42 0.00000449566 0.00058226560 -10.560979649 0.24073070890 0.01461097030 0.12785022224 0.94656487055 0.93635009659 0.98961058614 -30.27542010079 0.00066959884   -2 
  43 0.00000449566 0.00058225357 -10.554792775 0.24095494347 0.01461044949 0.12784896691 0.94679049173 0.93651960143 0.98961230642 -30.27539593166 0.00105161784   -2 
  44 0.00000449566 0.00058228808 -10.552287771 0.24101738027 0.01461030360 0.12784856010 0.94682415480 0.93655211259 0.98967748041 -30.27538924090 0.00168428822   -2 
  45 0.00000449566 0.00058225186 -10.533526522 0.24146097684 0.01460926693 0.12784560084 0.94682258593 0.93665395511 0.99023683130 -30.27534283534 0.00191890113   -2 
  46 0.00000449566 0.00058228020 -10.534522633 0.24142355975 0.01460935357 0.12784580679 0.94683472470 0.93665235145 0.99018744306 -30.27533642847 0.00099585956   -2 
  47 0.00000449566 0.00058221729 -10.533786533 0.24127151138 0.01460969907 0.12784628879 0.94685547300 0.93662415547 0.98984883042 -30.27531273023 0.00081542484   -2 
  48 0.00000449566 0.00058223122 -10.533783121 0.24129498784 0.01460964548 0.12784620528 0.94684605340 0.93662597754 0.98990955533 -30.27531162900 0.00063273958   -2 
  49 0.00000449566 0.00058219550 -10.531809278 0.24121742787 0.01460981760 0.12784632927 0.94677225586 0.93657094390 0.98980460816 -30.27530390774 0.00085212874   -2 
  50 0.00000449566 0.00058221290 -10.531711231 0.24122065136 0.01460981003 0.12784630975 0.94677591705 0.93657023024 0.98982591233 -30.27530238888 0.00057465508   -2 
  51 0.00000449566 0.00058219492 -10.530638622 0.24123646105 0.01460977116 0.12784617119 0.94673770096 0.93652192816 0.98993228789 -30.27529780606 0.00087542581   -2 
  52 0.00000449566 0.00058221042 -10.530423282 0.24123684360 0.01460976973 0.12784615311 0.94674507083 0.93652472090 0.98993500795 -30.27529629932 0.00040307598   -2 
  53 0.00000449566 0.00058215787 -10.522177037 0.24129839939 0.01460960347 0.12784528504 0.94690414826 0.93660612867 0.98982413561 -30.27528009676 0.00093622313   -2 
  54 0.00000449566 0.00058212297 -10.517248670 0.24133760447 0.01460949837 0.12784475765 0.94696461330 0.93664875374 0.98977834803 -30.27527712285 0.00125030691   -2 
  55 0.00000449566 0.00058197815 -10.470475301 0.24175255415 0.01460840530 0.12783959916 0.94680441140 0.93692780607 0.98988260135 -30.27521214118 0.00161865824   -2 
  56 0.00000449566 0.00058201840 -10.481818048 0.24166146379 0.01460864765 0.12784081555 0.94684809117 0.93682772108 0.98988748725 -30.27520558918 0.00120836055   -2 
  57 0.00000449566 0.00058199972 -10.448438642 0.24209674818 0.01460754222 0.12783661338 0.94663892730 0.93665782679 0.99038615516 -30.27514208703 0.00166466175   -2 
  58 0.00000449566 0.00058198290 -10.456052895 0.24202245263 0.01460773444 0.12783747418 0.94677708924 0.93671462217 0.99023760417 -30.27512841370 0.00121876307   -2 
  59 0.00000449566 0.00058201376 -10.456685895 0.24202816760 0.01460772203 0.12783749977 0.94682473053 0.93673207513 0.99023129071 -30.27512307877 0.00131144219   -2 
  60 0.00000449566 0.00058200775 -10.459952625 0.24209736873 0.01460756356 0.12783748014 0.94701777635 0.93679821071 0.99020299105 -30.27510282952 0.00092009789   -2 
  61 0.00000449566 0.00058207078 -10.461840363 0.24216097308 0.01460741539 0.12783737185 0.94700795425 0.93687879717 0.99028093357 -30.27509169148 0.00163107291   -2 
  62 0.00000449566 0.00058206413 -10.462956787 0.24220333146 0.01460731631 0.12783728910 0.94697021583 0.93691438620 0.99033146733 -30.27508461738 0.00040031972   -2 
  63 0.00000449566 0.00058208499 -10.462916487 0.24222241225 0.01460726970 0.12783720696 0.94694509994 0.93690841090 0.99038167170 -30.27508310764 0.00051824680   -2 
  64 0.00000449566 0.00058208618 -10.462769334 0.24224033629 0.01460722537 0.12783712019 0.94692263300 0.93689454235 0.99042371843 -30.27508226111 0.00033902102   -2 
  65 0.00000449566 0.00058208011 -10.462618264 0.24223060513 0.01460724805 0.12783714629 0.94694952016 0.93689827837 0.99038962767 -30.27508174037 0.00027457807   -2 
  66 0.00000449566 0.00058206551 -10.462142544 0.24222978497 0.01460724781 0.12783710785 0.94696335070 0.93688979245 0.99037696289 -30.27508108129 0.00053569618   -2 
  67 0.00000449566 0.00058206037 -10.460152516 0.24222770501 0.01460724362 0.12783694151 0.94701199300 0.93686737502 0.99035286508 -30.27507876575 0.00049886055   -2 
  68 0.00000449566 0.00058204157 -10.457598792 0.24222949923 0.01460722721 0.12783671036 0.94703802343 0.93684535803 0.99032748912 -30.27507744996 0.00066770852   -2 
  69 0.00000449566 0.00058200413 -10.453395094 0.24224469511 0.01460717013 0.12783627880 0.94697751623 0.93684096466 0.99033073916 -30.27507257509 0.00128911972   -2 
  70 0.00000449566 0.00058201188 -10.448644460 0.24226387310 0.01460710067 0.12783578349 0.94691144273 0.93685363445 0.99035441072 -30.27506675118 0.00050957120   -2 
  71 0.00000449566 0.00058195798 -10.435740790 0.24245862863 0.01460656322 0.12783387086 0.94681400516 0.93691994281 0.99047272421 -30.27505092155 0.00275819668   -2 
  72 0.00000449566 0.00058200601 -10.410890888 0.24283279063 0.01460553086 0.12783018683 0.94674991637 0.93706871251 0.99071281345 -30.27501108046 0.00235303548   -2 
  73 0.00000449566 0.00058179789 -10.321821030 0.24426352147 0.01460162005 0.12781657905 0.94691080157 0.93746146955 0.99141450527 -30.27490737064 0.00409984325   -2 
  74 0.00000449565 0.00058179660 -10.275636476 0.24500482689 0.01459959848 0.12780950436 0.94713578064 0.93768695552 0.99176856718 -30.27485632323 0.00204841355   -2 
  75 0.00000449565 0.00058169083 -10.248203526 0.24545832921 0.01459836244 0.12780522322 0.94741923321 0.93782556981 0.99191781666 -30.27482977183 0.00117464812   -2 
  76 0.00000449565 0.00058170884 -10.247971109 0.24545949866 0.01459835631 0.12780518982 0.94745198481 0.93784747262 0.99191446451 -30.27482655162 0.00077149669   -2 
  77 0.00000449565 0.00058167721 -10.247696271 0.24546298429 0.01459833361 0.12780510326 0.94756774437 0.93793875304 0.99187930219 -30.27482102785 0.00026998315   -2 
  78 0.00000449565 0.00058167281 -10.247776341 0.24546225542 0.01459833246 0.12780510145 0.94754562776 0.93794284267 0.99189995567 -30.27482068561 0.00028174961   -2 
  79 0.00000449565 0.00058167735 -10.247774609 0.24546174075 0.01459833209 0.12780509740 0.94754919307 0.93794759409 0.99190216645 -30.27482052699 0.00014562507   -2 
  80 0.00000449565 0.00058167121 -10.247832085 0.24546124091 0.01459832710 0.12780508010 0.94755176199 0.93796055949 0.99190205247 -30.27482038937 0.00018986770   -2 
  81 0.00000449565 0.00058167265 -10.247893269 0.24545993233 0.01459832105 0.12780505492 0.94755805379 0.93797768355 0.99190193403 -30.27482023358 0.00007970399    0 
-- Found new optimum with likelihood -30.274820233585046 and gradient 0.00008

---- Best joint likelihood found -30.274820233585046 with gradient 0.00008

---- Results for /scratch/40840245/tmpmer55fgl 
--  Model: C
--        eps_an     theta_bar             a 
-- 0.00000449565 0.00058167265            -1 
--           S_d             b           p_b           S_b 
-- -10.247893269 0.24545993233 0.01459832105 0.12780505492 
--           r 2           r 3           r 4 
-- 0.94755805379 0.93797768355 0.99190193403 

---- Expected P_neut(i), 0 < i < n (neutral SFS per site) 
E[P_neut(1)] = 0.0005816707
E[P_neut(2)] = 0.0002755839
E[P_neut(3)] = 0.0001818657
E[P_neut(4)] = 0.0001442425

---- Expected P_sel(i), 0 < i < n (selected SFS per site) 
E[P_sel(1)] = 0.0004012770
E[P_sel(2)] = 0.0001615815
E[P_sel(3)] = 0.0000973105
E[P_sel(4)] = 0.0000725786

---- alpha_dfe = 0.033610

